10259,10277,10450,10511,10516,10869,10977,11017,11037,11095,11146,11316,11405,11445,11572,116,1474,1584,1604,1828,1866,2027,2034,2179,2353,2393,2493,25,2612,2625,2655,2751,283,2836,2940,3145,3451,3489,3552,3561,3610,364,3766,3824,3825,3859,3889,4197,4221,4334,4400,4401,4435,445,4638,4750,481,4845,501,5019,5039,5151,5210,531,5328,5361,548,567,5856,5893,590,590,5902,5955,5965,5999,614,6155,6242,6305,6340,6355,6370,6456,668,6681,6716,6866,7223,7235,736,7385,7404,7444,7524,7574,7722,7827,8153,8177,8185,8264,8304,8324,8333,8455,8486,8505,8653,870,8941,9012,9275,9318,9341,9375,9446,9518,9578,9651,9822
10085,10312,10409,10421,10570,10583,11068,11168,11235,113,11318,11398,11412,11422,11498,11593,11603,1238,1283,1319,1325,1366,1535,1619,1753,1929,2120,219,2297,2444,2464,2479,2548,2585,275,2761,2815,302,3027,3047,3186,3232,3301,3346,3377,3440,3610,3654,3661,375,3760,3775,3980,3999,4014,4079,4196,433,4344,4406,4432,4450,4487,4523,4566,4624,4642,4733,5069,5089,524,5384,5396,5518,557,5704,5721,5849,5923,5958,6028,62,635,6375,6421,6477,6509,6583,6656,6748,6960,7011,7195,7236,7334,74,7543,7733,8032,8049,8178,8236,8316,8388,8755,8865,9113,9142,9329,9424,9426,9503,9507,9605,9622,9638,9714,9932,9954,9966,9975
10035,10148,1022,10446,10446,10464,10469,10483,10489,10497,10801,10850,10903,10946,11183,11278,1162,131,1330,1387,1441,1742,1860,1989,2142,22,2213,2276,241,2461,2539,2574,2743,2751,2778,2815,3102,3123,3189,3212,3230,3285,3388,3455,3557,3770,3784,4229,4236,4458,4519,4568,4587,4706,4760,4799,4803,489,4894,4956,4971,5057,5101,5232,5253,5270,5329,5518,5526,5584,5635,5794,5799,581,5840,5866,5920,5924,5995,6154,619,6436,6642,6664,6770,6961,6994,7031,7241,7267,7398,7517,773,7741,7845,7963,8009,8228,8368,845,8457,8512,8578,8765,8830,9165,920,9286,9322,9324,9365,9366,9380,9384,939,9468,9734,9803,984,9861,9906
10001,10003,10021,10022,10127,10199,10415,10427,10611,10747,10873,1095,10979,10994,11015,1104,11205,11310,11352,11511,11564,11605,1357,142,145,1869,1896,2065,2200,2211,2745,2849,3030,3095,3241,3256,348,3511,3558,3649,3843,3880,4038,4071,4223,4273,4341,4364,4414,4455,4539,4714,4727,4796,4796,4868,4883,4895,5072,5128,5171,5317,5374,5402,5449,5645,5691,5922,6026,6034,6216,6254,6323,6631,6840,6849,6877,6894,711,7235,7241,7304,7354,7678,7759,7928,7979,8011,8142,8203,8238,8446,8531,8583,8674,8776,8894,9059,9060,9113,9239,9252,9301,9327,9415,9449,9535,9562,9663,9711,9771,980,982,9852,9951,996,9973,9975,9982,9986,9997
10325,10334,10384,10414,10422,10442,10492,10626,10693,10694,11054,11279,1128,11321,11346,11520,118,1278,1406,1497,1508,1638,166,1679,1765,178,1890,1907,195,2,2046,208,2105,2250,2313,243,2515,2637,2718,2766,2790,2895,3096,3114,3186,3203,3405,3432,3587,3598,3605,3691,3726,3827,3871,3878,391,3936,4164,4286,4301,436,4567,4725,4784,4848,4973,5124,5213,5382,5444,5466,5503,5513,5537,5651,5676,569,574,590,5966,6343,6451,650,6629,67,6805,6921,7042,7440,7598,7615,7640,7711,7750,7750,7790,7810,7820,8033,8071,8079,8163,8365,8490,8529,8616,8722,8797,8892,9127,9215,9332,9349,9393,9636,9730,9775,9802,9862,987
10377,10387,10391,10893,110,11043,11097,11119,11170,11212,11231,11460,11593,120,1212,1217,1237,1306,1445,1454,1598,161,1687,1727,1782,1895,1972,2114,2160,2183,2317,234,2352,2355,2403,2419,2445,2519,2540,2614,2650,2687,3029,3053,3062,3150,3182,325,3696,3703,3751,3821,3884,3960,409,4128,4790,4825,4925,4931,4953,5059,5134,5152,5230,5357,5412,5528,6051,6053,6054,6167,6186,6355,6404,6428,6695,6744,6842,6938,714,7293,7317,7403,7495,7545,7553,7598,761,7742,7952,797,8100,8207,8263,8279,8280,8311,835,8406,8426,8556,8612,8618,8911,896,9167,9266,9272,9482,9612,9613,9679,9696,9744,9800,9809,9918,9928,9945,9983
1000,10385,10427,10517,1056,10588,1061,10644,10699,10946,10989,1115,11189,11196,11234,11248,11268,11442,1235,1262,1477,150,1601,1894,1910,2052,2181,2707,2719,2729,2746,2852,2888,2909,2999,3041,3067,3076,3119,3215,3241,3292,3328,3672,3833,3845,4028,4033,4036,4065,4068,4223,4240,4333,4476,4523,4948,4992,5019,5108,524,5271,56,570,573,5837,5850,5940,6278,6357,642,6434,649,650,6503,6636,692,7045,7070,7136,7149,7196,7327,7393,7440,7510,7855,7894,8098,8107,8154,8164,8172,818,821,8381,8471,8525,8573,8579,8596,8707,8733,8827,8846,8923,9005,9187,9332,9386,94,9526,9605,9621,9637,9693,9750,9769,9880,9950,9980
10374,10382,10465,10491,1067,11084,11112,11178,11220,11301,11363,11412,11425,11446,11468,11580,11587,136,1383,1445,1454,1631,1892,1919,1967,215,2197,2251,2288,235,2408,2476,2883,3057,314,3171,3393,3476,3565,3624,3669,3702,3790,3900,4030,4168,4184,4188,4275,4340,4420,4561,4684,4728,4856,4909,4930,5111,5163,5172,524,5267,5299,5450,5513,5582,5593,5690,5701,5764,5868,5894,5987,603,6323,6380,6391,64,6453,6607,6618,6640,6705,6730,6830,6911,6928,6941,7015,7039,7101,7271,7272,7433,7466,749,7520,76,77,7838,8296,8391,8456,8602,8667,8680,871,8757,8856,8862,890,8931,8985,912,935,9507,9591,9602,9793,9842,9864
10028,10042,1014,10427,10458,10666,10700,10771,10786,10839,10867,10876,10966,10995,11126,11389,1140,11431,11622,117,1220,1333,1436,144,1505,1572,1665,1665,1965,204,2092,216,2224,2266,2296,2354,2371,2622,2681,2683,2699,272,2744,2746,2819,2926,3003,3122,3170,3325,3631,3644,3660,3702,3724,3773,389,3945,4134,4257,4305,448,4500,471,480,4907,4954,4954,4965,4995,5166,5200,522,5332,5351,5366,537,5379,5503,5638,5781,5823,5853,5931,6092,6127,6179,63,6563,6574,6788,6938,7156,7180,7187,7229,7276,7306,7371,7536,7798,7889,7908,7993,8010,8100,8167,823,8242,8317,8327,8473,8736,874,8763,8882,8991,9320,947,9617,9627
10049,10132,10168,10185,10254,10265,10329,10366,10386,10454,10512,10570,1074,11056,11092,11124,11163,11396,11486,11508,11526,11527,11601,11603,11624,11640,121,138,1405,1420,1531,1723,1861,1903,2359,239,2716,2775,2882,3114,3165,3194,3280,3353,3391,3458,3532,3626,3787,3831,3881,3896,3947,4028,4209,4228,4309,4426,4567,4628,466,4791,4844,4972,5014,5053,5056,5083,5194,5215,525,5329,5336,5442,5547,5623,5738,5786,5951,5998,6140,6167,6366,6579,6704,685,6874,697,7209,7245,7757,7852,7869,794,8010,8164,817,8194,8343,8369,8400,8478,8590,8672,8741,8747,8803,8862,8984,9030,9216,9263,9312,9391,9429,9625,974,9786,9842,9963,9990
1002,10253,1026,10278,10284,10423,10426,10572,10748,10752,10778,10890,10945,10960,10974,11025,11190,11228,11369,11603,1261,1369,1388,148,1514,1582,1587,1604,1808,1921,1938,203,2104,2117,2222,2228,2454,2652,2752,288,2937,3052,3062,3074,3113,3233,3288,3300,341,3411,3419,3451,3459,3514,3540,365,370,3915,4102,4121,4142,4147,4309,4504,4646,4699,4820,4825,4833,4839,4964,4965,5023,5042,5061,5081,526,5382,5395,5557,5600,5601,5903,6087,6411,6441,6455,6472,6564,6607,6764,6884,6901,6936,7006,7087,7287,7307,7517,753,7531,7717,774,7788,7793,7824,7935,806,8096,8192,8257,8451,8495,8737,8869,8993,9113,9298,9546,9849,9908
10017,10133,1016,102,1022,10289,10300,10432,10595,10716,10829,10959,11122,11173,11181,11296,11339,11385,11399,11472,1280,1298,1306,1315,1473,1615,1646,176,1804,1853,196,1991,2062,2237,2350,2372,2565,2609,2837,2903,2969,3086,3162,3297,3349,3416,3532,3569,3580,3606,3614,3672,3715,3800,3805,3829,3950,4171,418,4362,4375,4430,4434,451,4552,4587,459,462,4690,4805,4848,5118,5154,5194,5200,5293,5425,5492,5649,5694,6003,6022,6122,6152,625,626,6349,647,6483,6683,6684,6778,6915,7149,7211,7271,7322,7337,7365,7425,7431,7453,7563,7634,7687,7765,7922,8302,8487,8665,8732,8743,8785,8863,8871,8885,8920,9,9200,9554,9627
10012,10082,10155,10176,10209,10351,1047,1047,10664,10686,10864,11275,11329,11449,11472,1152,1206,1264,1422,1446,1498,1747,1762,1770,1901,2154,2183,2196,2375,2386,2526,2708,2753,2767,307,3071,3165,3230,3261,3319,337,3433,3494,3552,3630,3668,3801,3883,4056,4092,4459,4515,4522,4532,4625,4681,4775,4777,5033,5087,5090,5168,5184,5208,5327,5556,5587,5655,5704,5711,5889,622,6237,6246,6260,6352,6411,6561,6593,6641,667,6761,6790,69,6929,6974,7131,7157,7180,7192,7203,7268,7383,759,7658,7701,7707,7755,7826,7995,8008,8018,8019,8092,8245,8292,8326,8373,8654,8741,8886,893,8933,8957,9082,9349,9504,9580,9776,9873,9987
10148,10199,10207,1022,1024,10330,10402,10613,10716,10744,1079,10800,10832,10853,11017,11097,11337,11406,11466,11532,1266,1289,1366,150,1678,1691,1837,1931,2230,2231,2266,2299,2394,2534,2765,2913,3165,3189,3248,326,3339,3480,3557,3727,3739,3826,3919,3934,3984,4032,4075,4177,4184,4272,4390,4481,4531,4551,4576,461,4681,4874,5007,5076,5183,5393,5587,5620,5752,5786,5866,5867,5900,601,6047,6268,6320,6357,6377,6438,6456,6517,6534,658,6601,6645,6649,6934,6968,699,7027,7201,7272,7440,7493,7499,7516,7580,7755,7759,778,7803,8029,8176,8181,8263,8297,832,8389,8483,850,8572,8877,8904,9032,9156,9190,9238,9277,9282,9481
10058,10061,10061,10101,10124,10128,10202,1023,10512,10558,10587,10731,10739,10769,11095,11239,11536,11552,1326,156,1644,1671,1674,1736,1865,1877,1879,1942,1979,207,2270,2288,2411,245,249,2523,2527,2555,2714,3533,357,3657,368,3709,3790,3817,3975,403,4037,409,4132,4196,4241,4371,4390,4439,4590,4822,4842,4920,5002,5029,5242,5422,5432,5440,5481,5574,5656,5778,5821,5850,5945,5968,6111,6456,6464,6526,6643,6767,6931,6959,6963,7017,7066,7067,7267,7267,7419,7462,7636,765,7706,7981,8011,8047,8217,8336,8364,8365,8480,8564,8597,8642,8744,8818,8975,9043,9119,92,924,9278,9285,9338,9416,9464,9464,9511,9779,9844,9950
10017,10031,10072,10131,10176,10299,10377,10404,10521,10552,10672,1077,10777,10798,10811,11035,11061,11081,11143,11322,11323,11392,11433,11451,11613,1278,1408,1424,1688,1827,1836,1946,1993,2102,2222,2380,2450,2654,2913,3009,3061,3255,3401,3411,3540,3594,3751,3802,3903,4014,4088,4159,4188,4212,4404,4428,4612,4631,4711,4756,4844,5010,5128,5262,5455,5639,572,5837,5940,6075,6335,6364,6372,6413,6422,6492,6617,6619,6721,6732,6893,6907,6963,7045,7074,7216,7261,7289,7458,748,7534,7598,7706,7731,7741,7853,793,7937,8158,8254,8262,8310,8557,8605,8712,8809,8882,894,909,9094,9104,9307,953,954,9606,9616,9623,9748,9757,9808,996
10087,10273,10275,10344,10558,10824,10830,11039,11118,11219,11255,11275,11295,11395,11426,11484,11620,1220,1323,1354,146,1471,1528,153,16,1774,1830,1890,2012,2235,2549,27,2954,2983,3065,3136,3178,3207,3366,3413,3495,3642,3665,3816,3826,3836,3872,3981,4068,4101,4152,4208,4221,4253,4265,4282,4354,4402,450,4624,4704,4818,4970,5015,5044,5294,530,5332,5410,5429,5547,5713,5722,5786,579,5795,5876,5894,5963,6083,6482,6486,6688,6689,6735,6823,704,7068,7129,7153,7225,7355,744,764,7665,7844,7982,7990,8259,8277,8303,8370,8393,8536,8711,8780,882,8878,8984,910,9267,9271,9472,9618,9783,9816,9824,9859,9981,9989,9996
10096,10109,10408,1054,10560,10627,10777,10798,10963,11013,11134,1119,11221,11391,11412,11492,1388,1515,1615,1771,1774,1842,1863,1909,1919,1991,2038,206,2203,2298,2340,249,2571,2845,2978,2993,3048,3060,3136,3234,3235,3256,3276,333,3389,3524,3775,4018,4065,4174,4272,4334,4417,4425,4456,4602,4709,4731,4737,4763,4789,4829,488,491,4954,5139,5139,5179,535,5486,5486,5498,5528,5685,5788,5793,5920,5999,6001,6109,6151,6179,6235,6663,6789,6856,6862,6877,7078,7097,7204,7373,7520,7554,7555,762,7689,7775,7840,7996,8029,8049,8374,8526,8622,8995,8998,9009,9013,903,9049,9088,9102,9144,9597,9598,9766,9812,9953,9972,999
10091,10189,10434,10589,10825,10826,10846,10885,10889,11034,11309,1144,1145,11620,1216,1334,1385,1530,1637,1660,1708,1756,1757,1812,1922,1945,1961,2072,2233,2236,2416,2492,2516,2551,260,2650,2663,3,3132,3237,3256,3273,3487,3543,3664,3789,3886,3902,3988,4107,4110,4127,425,4294,4353,4490,456,4740,4782,4861,4929,493,4936,4955,4962,5015,5023,5082,512,5121,5385,5390,5487,5553,5594,5838,585,589,6041,6113,6143,6288,6377,6458,6596,661,6648,6697,6732,6785,7113,7144,718,7183,7204,7492,7509,7837,7963,7992,8081,8377,8401,8477,8745,8788,8933,8975,9073,9168,9348,938,9578,9689,9706,9739,9815,9848,9933,9939,9970
10061,10106,10243,10325,10427,10460,10768,10860,10904,10906,11045,11143,11162,11205,11353,11432,11561,11601,1322,133,136,1522,1737,1882,1934,1988,1997,2001,2028,223,2263,2265,2328,2385,2426,2466,2523,2562,2722,2731,2968,3002,3110,3118,3183,3352,3360,3413,3439,3605,3615,3754,397,3982,400,4289,4437,4455,4560,4695,4754,4835,4851,4876,5015,5073,5077,5092,5120,5539,5540,565,5687,5770,5802,6054,6253,6406,6823,6994,7007,7059,7131,7142,719,7248,7322,7327,7669,7729,7763,7813,7839,7906,8002,8108,8256,8356,8655,8718,88,880,8869,888,8886,8900,8945,9000,9005,9006,9150,928,9281,9673,9754,976,9763,9765,9853,9903,9944
10184,10209,10328,1036,10638,10663,10666,10691,10848,10853,11050,11182,11245,11495,1152,11639,1192,1257,1340,1476,1555,1622,1731,1772,1851,2068,2226,2341,2363,2636,2915,2990,313,3170,3291,3302,3535,3591,3869,3899,3932,394,4015,4038,4050,4132,4132,417,426,4303,4324,4344,4348,4366,4482,4524,4534,4679,4695,47,4735,5013,5052,5208,5296,5309,5350,5399,543,5522,5757,5915,5918,5918,5922,5941,6097,646,6542,6555,6574,6582,6712,6733,6791,6962,703,7058,7301,7403,7602,7628,7809,7811,8038,8214,8225,8262,8449,8542,8585,8685,8788,8803,8821,889,8912,9019,9045,9328,9666,9686,9722,9761,9788,9789,9815,9875,9887,9941,9948
10178,1020,10200,10215,10280,10550,10615,1066,10798,10801,10988,11,1112,11139,11340,11418,11453,11525,11540,1156,11615,1166,1206,140,1630,169,1695,1819,1838,1921,1962,2007,2168,2361,2369,2480,2521,2565,2598,2614,2990,3025,3202,3363,3483,3522,3528,3603,3720,38,3979,4041,4188,4336,434,4579,4789,4926,4994,5054,5176,5269,5283,5305,5444,5500,553,5592,5625,5800,5810,5877,597,6023,6151,6192,6394,6397,6493,652,6699,7073,7209,7290,7311,733,7346,7351,7366,7455,7494,7540,7550,7755,7886,7947,8059,8084,8256,8270,832,8338,8417,8434,8478,8700,8712,8942,8956,8964,9293,9418,9459,946,9553,960,9601,9622,9628,9703,9781
10022,10085,10106,10136,1027,10322,10328,10423,10471,10498,10586,10600,10803,10879,10934,11064,11145,1115,11253,11506,1195,1328,1442,146,1518,1620,1629,1823,1855,1860,1951,2034,2549,2735,274,2800,290,2955,3014,302,3083,3387,3391,3427,3471,3724,3936,4011,403,4140,4230,4244,4361,4363,4417,4513,4609,4644,4722,4754,4805,4835,4877,5046,5118,5321,537,5493,5494,55,5522,56,5628,5674,5699,5738,5888,6154,616,6203,6364,6446,6448,6490,6597,6732,6809,687,6902,7001,7067,7101,7121,7125,7155,7224,7359,7581,7701,7891,8038,8110,8126,8177,8186,8263,8420,8447,8557,8577,868,8774,9090,9220,936,9500,9552,9696,9843,9956,9961
10123,1028,10355,10369,10391,10405,10425,10598,10993,11047,11172,11182,11337,11344,11380,11526,11544,11546,1441,1464,1493,1557,1642,1843,2041,2077,2224,2245,2245,226,2322,2461,255,2627,2705,2759,2864,293,2948,297,316,3231,3238,3332,3390,3806,3949,40,4184,4188,4230,4238,4294,4319,441,4500,4521,4597,4742,4809,4847,4872,4981,5185,5589,5657,5691,5872,5884,590,5964,6017,602,6133,6229,6500,6531,6650,7011,7051,7143,7146,7153,7200,7204,7271,7355,74,7403,7413,7436,7441,751,7670,7703,7762,7844,797,8018,8039,8047,815,8151,8184,8248,8315,8488,8696,8735,8762,8917,8932,9031,910,9100,9103,9383,9475,9739,9794,9966
10105,10203,10219,10221,10270,1030,10359,10415,10429,10612,10627,10662,10739,11006,11051,11105,1115,11178,11281,11325,1137,1296,1732,1734,1801,1846,1870,1947,2122,2124,2408,2545,2607,2617,2741,2747,284,2872,2876,2901,3054,3158,3216,3250,345,3752,3756,3764,3912,3960,4007,413,4219,4307,4405,4643,4705,4737,4768,477,4799,4830,4886,4950,5059,5068,5102,5163,5174,528,5358,5385,5557,5571,5598,5856,5968,6257,6329,6647,6670,6745,6985,7052,7193,7358,7451,7453,7468,7548,7570,7596,7649,7740,7757,7829,8109,8188,8204,8293,8363,8385,8455,8461,8517,8639,866,8716,8755,8785,8791,8929,8933,9109,9298,9356,9398,9562,963,984,9871
10006,10035,10122,10208,10208,10210,10300,1032,10368,10448,10648,10736,10791,10887,10907,11042,11134,11176,1125,11471,11477,11575,1273,1343,138,149,1757,1811,1857,1896,1907,2037,2117,212,2155,2206,2256,2334,2336,2392,2426,2672,2686,2748,2794,3023,3036,3125,3314,334,3420,3434,3462,3669,3686,3860,3987,4018,4233,4249,430,4409,4422,4451,4573,4713,5102,5145,5230,5314,5458,5603,5603,5681,5687,5714,5865,5880,5891,6048,6152,619,6610,6619,6860,6867,7003,7051,7070,7081,7227,7321,7335,7363,7436,7497,7631,778,7993,8247,830,8374,8460,8472,8611,8656,8672,8681,8685,8729,8827,8925,9092,9320,9468,9595,9698,9753,9815,9878,9953
10080,10291,10309,1043,10571,10583,10667,10805,10814,1089,10929,10936,1098,10992,11005,11031,11077,11230,11342,11424,11443,11454,11530,11542,1343,1457,1784,1826,2007,2024,2155,227,2324,2325,2494,2711,2861,2861,2923,2946,3014,3067,3134,3166,3239,3255,3347,3362,3399,3574,3714,3743,3884,393,402,4057,4063,409,4181,4207,4223,4457,4631,4640,469,4694,4701,476,4987,5210,5286,5291,5308,5455,5500,5598,5618,5666,571,5779,5872,6048,606,621,6289,6351,6451,6645,6668,6826,6883,6979,7303,7320,7326,7362,7390,7683,7824,7938,8032,8116,8179,8365,8376,843,8528,8528,8594,8837,9083,916,9174,9213,942,9422,9544,9585,9858,992,9969
10198,10224,10291,10379,10511,10676,1068,10858,10967,11165,1132,1133,11414,1144,11551,11553,1185,1216,1222,1281,1484,1529,1549,1707,1791,1827,1910,1925,1999,2026,2068,224,228,2804,2870,2914,2979,3023,3085,3117,3121,3168,3195,3377,3425,3486,3582,3595,3847,3864,3921,3930,4208,433,4347,4484,4652,4736,4822,4897,5064,5145,5230,5333,5482,5685,5812,6052,6209,6246,6273,6328,6376,6437,6503,6687,684,6956,7241,735,7395,7422,7524,753,7624,766,769,7853,7905,7909,8026,8109,8293,8295,8332,8356,8504,8529,8540,8589,8670,8793,8809,889,8935,8990,908,9155,9226,9238,9270,9301,9315,9356,9437,9467,9475,9535,9671,9878,993
10001,10220,10233,10311,10342,10391,10460,10546,10558,10617,10733,11020,11043,11061,11131,11335,11375,11623,1282,1343,1530,1568,1657,1773,184,1909,1937,194,1950,1980,2252,2317,2409,267,2696,2715,2804,2837,293,3080,3301,3537,3836,3852,3915,396,4460,4555,4594,4608,4635,4660,4682,4699,4720,4800,4804,481,4849,4902,5078,5319,5402,5422,5484,5513,5570,5574,5603,5665,5740,5750,5862,5916,5945,6041,6051,6175,6431,6487,6638,6662,673,6776,7328,7347,7348,7358,7398,7505,7669,7702,7743,7744,7830,7921,825,8287,8457,8503,8538,8633,8717,8852,8898,890,8936,895,9187,9189,9197,9299,9375,9575,9655,9657,9797,9868,9936,995,9969
10026,10190,1030,10376,10545,10655,10829,10833,10920,11048,11065,1117,1121,11280,11366,11468,1314,1378,1381,1407,1559,1560,1633,1744,1774,1840,1849,1852,200,2074,2134,215,2229,2589,2633,2759,2810,2818,2824,286,2964,3016,3045,3223,3227,3305,337,3375,3500,4055,4075,4113,4139,4302,4504,4511,458,4588,4613,4711,476,4832,4888,4951,4978,5107,5184,5262,5286,5349,5380,5452,5545,5562,5642,5656,5733,5740,5769,6037,6519,6663,6885,6981,7277,7427,772,7738,7753,7811,7930,7974,8017,813,813,8276,829,839,8458,8571,8615,862,8649,8688,8760,8777,8841,890,896,9002,9085,9091,9205,9232,9372,940,944,967,9730,9918,9927
1002,1012,10125,10544,10600,10785,10915,10969,1120,1123,11328,11363,12,1218,1538,1600,1650,1735,1796,1966,1969,2058,206,2184,2245,2369,2558,265,2802,2830,2853,2945,3027,3152,3261,344,347,3471,3573,3593,3599,3791,4065,4169,4372,4381,4488,4722,4754,4858,489,4911,494,4943,5077,5247,5276,5638,5681,5690,5759,5776,5818,5848,6010,6117,6271,6465,6482,6571,6573,6687,6704,6784,6791,6921,6931,6955,7027,7140,7299,7473,7482,7588,7595,7626,7748,792,8037,8055,8201,8231,8296,8501,8503,8569,8851,8885,8886,8939,9075,91,9190,9276,9333,9357,9368,9435,947,9599,961,9628,9705,9707,9724,983,9879,989,9937,9946,9960
0,10009,10264,10452,10527,10611,10647,10724,10745,10921,11026,11134,11270,11349,11387,11471,11537,11566,1279,1294,1330,1368,1402,1718,1848,20,2039,2121,2145,2157,230,2319,2345,2453,27,2702,2807,293,3090,3154,3169,3329,3337,3372,3477,3493,37,4166,4214,4235,4262,4291,4344,4362,4427,4429,4471,4480,4568,4700,4722,4978,4983,5098,5159,5190,5258,5308,5363,5576,5579,5657,5672,5715,5764,5821,5961,6093,6094,6292,6331,6473,6505,6512,670,6702,6837,6870,6933,6949,7028,7154,730,7329,7414,7416,7448,7541,7650,7769,7806,7809,781,7838,8075,8242,8288,873,8872,9035,9112,9250,9328,9411,9418,9526,9533,9556,9726,9788,9851
10027,10049,10328,10470,10478,10567,10589,10687,10742,10795,10928,10968,1097,11050,11123,11176,11197,11202,11472,11484,11535,1161,1201,1230,1382,1452,1469,1599,1666,1858,1948,2014,2020,2120,2206,2266,2410,2437,2452,2472,2607,2612,2928,2951,312,3158,3231,3246,3298,3349,3371,3639,3640,3670,3788,3898,4035,4126,4319,4474,456,4565,4650,4762,49,5040,5067,507,5253,5297,5317,5410,552,5584,564,5651,5891,5946,6023,6155,6227,6234,6341,6370,6681,6702,6790,6886,6892,6953,6980,7067,7187,722,729,741,767,7909,7931,7968,8003,8022,8141,826,8344,8560,8610,8687,8721,881,9143,9246,9258,951,9565,9613,9619,9639,9641,9726,9791
10170,1021,10232,10292,10322,10406,10557,10670,10671,10691,11151,11288,11289,11379,11554,1405,1450,1501,170,1766,2016,2095,2185,2237,2407,2522,2567,2790,3155,3201,3202,325,3326,3388,340,3487,3582,3699,3784,3830,402,4112,4145,4223,4455,452,4571,4607,4687,4989,5038,5040,5063,5111,5206,5323,5431,5470,5514,5590,5626,5805,5842,5961,6017,6028,6065,6066,6169,6254,626,6324,640,640,6543,6726,6828,6884,6916,6928,6960,6980,7024,7335,75,7546,7582,7636,7788,7856,7937,8085,8093,8228,8307,8354,8575,8585,8675,8743,8771,8776,8808,8840,8864,9196,9211,923,9232,9346,9420,9445,9551,9553,9604,9683,9766,9795,9799,9805,9961
10475,10476,10510,10629,10718,10745,10761,109,10922,10974,11129,11152,11348,11354,11385,11519,11549,118,13,1425,1471,1525,1614,169,1754,1846,1867,1952,1954,2302,2326,2352,238,2507,2633,2665,2779,2822,2870,288,2900,299,3163,3173,3408,3452,359,3611,3644,3656,3784,3944,4085,4172,4263,4672,4737,4920,4991,500,5002,5010,5055,5118,519,5506,5600,5719,5773,595,6071,626,6299,6368,648,6518,6570,6700,6711,6756,6804,6904,7031,7063,709,7105,7124,7136,7168,7391,7500,7676,7739,7783,7974,7991,8064,809,8163,8302,86,8712,8789,8913,8915,8917,8956,9016,9046,911,9169,9185,921,9274,9307,9384,9679,9755,9838,986,9869
10017,10030,102,10200,10313,10425,1043,1044,1048,10597,10723,10749,10994,11278,11425,11506,11615,1197,141,1521,1543,1693,1725,1902,1958,1993,2019,211,2235,2238,2368,2480,250,2626,2640,2771,2980,3076,3089,3132,3222,3266,3290,334,345,3474,3695,3704,3992,400,4261,4294,4471,45,4545,4582,4582,4648,4771,4844,4972,5001,5208,5239,5268,5463,5707,5815,5841,5855,5935,5945,6069,6189,6236,6309,634,6347,635,6381,6383,6383,6444,6555,6798,6805,7043,7075,7090,7098,7148,719,7252,7285,7299,7462,7510,7702,7787,784,7879,7976,803,8127,8234,8254,8312,8486,8510,8530,8536,858,8682,9046,9103,9162,9171,9342,9415,9418,9797
10059,10234,103,10397,10404,10422,10424,10541,10570,10570,10602,10807,11002,1119,11202,11209,11594,1176,1308,1321,1354,1414,1485,1550,1704,1719,192,1960,1994,2125,218,2180,2192,2211,2236,2254,2352,2539,2601,2656,2699,284,2849,2874,288,2996,3011,3136,3141,3358,3413,3425,3457,353,3531,3603,3604,3613,3629,387,3972,3996,4113,4129,4276,4322,4803,4893,4946,4949,519,5493,5509,5744,5753,5855,5866,5892,6047,6169,6189,6483,6578,6603,6619,6652,6659,6663,6745,6748,6757,6760,6869,6891,6968,7099,7123,714,754,7600,7810,7994,8029,8209,8244,8594,8618,8760,8809,8819,8873,8890,8900,9064,9241,9266,9324,9753,9936,9966,9989
10092,10107,10189,10238,10293,10418,10497,10519,10900,11279,11293,11342,11348,11351,11433,11521,1339,1412,1426,1450,1594,1648,1703,1722,1748,1844,19,1981,200,2146,236,2370,2386,2413,2546,2551,259,2881,2972,3029,3037,3101,3173,3255,3276,3349,3366,3469,3489,352,3547,361,3631,3781,4021,4033,4197,431,4333,4471,4482,4608,4613,4638,4680,4870,4904,498,4987,4995,5016,5052,5283,5378,539,583,5832,5842,5933,607,6333,6349,6435,6448,6571,6756,683,6853,7009,7149,7165,7197,7305,7319,7401,7496,7533,7550,7592,7777,8043,8255,8281,8319,8410,8450,9001,9076,9135,9211,9301,9325,9356,9362,9380,9492,9543,9759,9777,9782,9896
10006,10039,10147,10157,10248,10347,10430,10687,1079,10858,10950,11172,11297,11314,11388,11425,11530,11572,1159,1198,1306,1312,1482,154,1653,1822,1917,1924,2092,2568,2582,261,2613,2684,2706,2761,2782,3226,3258,3441,3461,3636,3832,3907,4121,4304,4512,4550,4552,4659,4750,490,506,5114,5149,515,5272,5432,5777,5792,5890,5943,6039,6041,6044,6141,6207,6466,6468,6477,6508,6614,6790,6884,6931,6942,6979,7004,7019,7073,7104,711,7121,7196,7350,7363,7550,7582,7643,771,8049,8062,8227,8303,8373,8405,8614,8724,8754,8770,8877,8976,900,9223,9243,936,9361,9397,9421,9435,9462,9475,9516,9570,9578,96,9702,9756,9791,9791,9950
10058,1008,10093,1013,10245,103,10399,10496,1057,10841,11021,1105,11094,11249,11304,11443,11603,1183,1243,1294,1514,1515,152,1543,1569,1690,1712,1749,2011,2117,2299,231,2351,2612,2691,2726,2775,2789,2875,2881,2909,3097,3165,3285,3353,3361,3382,3406,3428,3429,3671,38,3866,3895,4013,407,4131,42,4333,441,4533,4637,4670,4878,4914,4982,501,5041,5320,5457,5798,5874,5962,6068,6110,6125,6166,6190,6349,6365,6367,6384,6405,6640,6750,6772,6967,6990,7264,7292,7325,7356,7459,7504,7591,7598,7667,7734,7982,8175,8207,8247,8302,8344,8387,8439,846,8497,8603,8655,8863,891,9089,9315,9464,9524,9619,9656,9829,99,9946
10024,10095,1031,10397,10451,10637,10724,10784,10840,10870,10888,10900,10923,10989,11111,11118,11151,11344,11380,11519,1168,126,1265,1427,1528,161,1669,1818,1891,2038,2110,2169,2209,229,2382,2391,2479,2642,2697,2750,2947,307,334,3363,3509,3527,3681,3828,3856,3884,4075,4141,4151,4152,4299,4333,4351,4475,4626,4638,4709,4824,4940,5069,5074,5103,5111,5382,547,5744,6005,6086,6332,6390,6423,6560,6587,6639,6675,6727,6824,6862,6951,7110,7233,7351,7493,756,775,7791,794,7972,820,8228,8260,8398,8440,8531,8646,8711,8728,8768,8845,8939,8966,8980,8996,9015,9069,9142,9144,9209,9216,9323,9345,951,9660,9662,9763,9840,9979
10020,1003,10099,10375,10378,10435,10805,10842,10876,10931,11033,11066,11113,11270,11356,11595,120,1293,1421,1450,1529,1537,1652,1917,1938,2381,2462,2564,2736,2777,2789,2841,2907,2929,2963,3005,3024,3035,3138,3173,337,3409,3922,4018,4273,4506,4599,4612,481,4819,4824,4826,4836,484,4893,4939,4952,5126,5373,54,5672,5761,5768,5812,5895,6140,6151,6215,6227,6244,634,6345,6413,6414,6414,6421,6565,6656,6843,6861,6957,7025,7061,7118,7243,7257,7337,7399,7558,7850,7940,7967,8020,8040,8059,8065,8070,8208,8210,8229,8248,8310,8417,8498,8719,8960,8966,9004,9012,9061,9193,9251,9311,9332,9422,9473,9579,9646,9725,9778,9988
1000,10145,10231,10233,10329,10437,10476,10644,10771,10914,10971,10995,11003,11013,11022,11037,1108,11229,11233,11250,11264,11306,11416,11547,1176,1214,1292,139,1529,1578,1734,1858,202,2038,2120,2289,2334,2506,2572,2581,2611,2695,2884,3037,3136,314,3166,3227,3633,3686,380,3825,3862,3963,3964,400,4141,4218,4225,44,4417,4464,4545,457,4634,4775,4891,5245,5289,5303,5347,549,556,5658,5767,5838,5878,5878,5938,6005,6049,6063,6114,6158,6320,6391,6399,6477,6489,6496,6515,654,6562,658,681,6874,6970,7073,7262,7632,7727,8067,8252,8498,8502,8607,8651,8747,9025,9233,9259,936,9517,9524,9536,9547,9605,9619,9780,9922,9947
10441,10451,10493,10569,10637,10647,10656,10668,10725,10744,10847,10856,10983,11050,11122,11427,11537,11583,11584,11611,11630,1259,1265,1321,1392,1547,1637,1674,1697,17,1710,1797,1852,1877,1959,2020,2309,2374,2430,2513,2538,2562,2563,2590,2615,2713,2738,2771,2793,2925,3024,3291,3377,3448,3618,3804,4170,4269,4396,4458,4529,4629,4791,4798,4857,5089,5379,5476,548,561,5719,5838,5862,5901,599,6015,6100,612,6250,6307,6477,6569,6635,6644,6677,6682,6809,6830,7209,7309,7412,7509,7531,7595,801,8050,8053,8181,8189,8419,8460,8506,8616,8729,8822,8968,9077,9086,9211,9269,9280,9292,9297,9441,9485,9490,9560,959,9729,9740,9915
10097,10185,10254,10326,10344,10497,10730,10838,10931,10968,11038,11132,11136,11143,11369,11522,1205,1215,1305,1432,1774,1775,1820,1825,1840,1890,208,2146,2168,2314,236,2413,2485,2565,2597,2690,2755,2847,3216,3251,3369,3460,3665,3799,3819,3823,3837,3844,4088,4331,4542,4543,4639,4773,4846,4971,5045,5070,5101,5370,5380,5398,5406,5484,5526,5548,5594,5637,575,5814,5902,5917,5982,6247,6352,6446,6610,668,6707,6808,6817,6977,7003,7043,7049,7124,7131,7201,7209,7225,7257,7287,7396,755,7615,7726,7738,7745,798,8019,8156,8166,8275,8342,8435,8447,8640,8852,8995,9012,9072,9237,9253,941,9456,9464,9533,9643,9691,9713,9804
10164,10205,10302,10328,10364,10395,10659,10696,10698,10699,10795,11111,11145,11179,11457,11561,1208,1247,129,1314,1329,1376,1616,1649,170,1716,1728,1749,1762,1879,194,2143,2252,2267,2311,2348,239,2401,2702,2768,2770,2884,291,2966,3024,3085,3124,3209,3217,3219,3232,3434,3583,3644,3778,3818,3820,3979,4020,4048,4213,4257,4425,4511,4562,4609,5073,5167,5186,5191,5211,5255,535,5394,5477,5627,5632,575,5771,5797,5980,6080,619,6249,6272,6395,6669,6731,6748,6888,6965,7134,7179,7221,7260,7326,7378,741,7484,7616,7697,7740,7802,8119,8137,8192,8205,8238,831,8354,8642,8695,8706,8757,8953,9189,9402,9551,9797,9851,9914
10079,10095,10156,10322,10421,10453,10528,10560,10740,10781,10857,10913,1095,1120,11350,11416,11447,11537,11589,1366,1398,1442,1452,1837,200,227,2326,2435,2512,2733,2796,2839,2861,3010,3026,3084,3124,3128,3244,3264,3431,35,3552,3607,3622,4043,405,4113,4278,4433,4597,4625,466,4703,4720,473,4969,5025,5062,5089,513,5189,5279,5303,5376,5434,5603,573,579,5834,5992,6289,6360,6411,6419,6527,6541,6580,6652,6709,6908,6985,7051,7087,7089,717,7195,7218,7466,7492,7514,7836,7890,8110,8111,8237,8368,8395,8396,8419,8445,8445,847,8665,8754,8849,8917,8943,9155,9291,9383,9400,9414,9441,9447,9521,9565,9569,9596,9733,9734
1009,10276,10362,10448,10534,10601,10744,10787,10848,10929,1103,11051,11181,11259,11268,11366,11480,11490,11609,1189,1218,1318,1426,148,1592,18,1821,1982,1993,2138,22,2470,2540,2552,265,2942,2971,3057,3074,3212,3381,3461,359,3661,3764,3904,4074,4174,4314,4386,4462,4465,4485,4572,4709,4837,4857,4886,500,5013,5051,5155,5157,5232,5352,5393,545,5454,5579,5627,578,5823,6081,6133,6243,6263,6590,6705,6734,6836,6843,6914,708,7100,7134,7231,7475,75,7538,7578,7628,7691,7719,7870,7870,7904,7909,794,8181,8363,8533,8666,8698,8701,8706,8731,9037,9037,9100,9238,9299,9333,9400,964,97,9754,9830,9843,9896,9908,9986
10015,10059,10105,10251,10260,10340,10363,10421,10726,10824,11082,11165,1127,113,1131,1131,11393,114,11452,11503,11590,120,1400,1457,1479,1666,1956,2022,2155,2320,2366,2390,2525,2538,2544,2658,2845,2957,2993,3056,3058,310,319,3503,3517,3591,3604,3790,3812,3865,3919,3926,3927,3933,4205,4206,4307,435,4867,4924,5041,5067,5096,5154,5183,5278,5366,5480,5645,5729,5792,5851,5908,6043,6105,6141,6180,6250,6301,6361,6513,6845,7085,7174,7238,7266,7292,7292,7334,7419,7443,7446,746,7514,7533,763,7718,7763,7775,7920,8095,8299,8495,8734,8778,8955,896,9066,9086,9088,9151,9208,9295,9343,9353,9494,9518,9597,9700,9818,9905
10069,10198,10232,10272,10338,1040,10463,10495,10522,10537,10580,10731,11036,11051,11154,11329,11405,11411,11519,11565,11570,11619,122,1494,1534,1709,1767,1813,1960,1970,2,2104,2297,244,2524,2569,2623,2982,3012,3025,3052,3352,348,3538,3545,3602,3632,3636,3709,3864,3867,3978,3991,4016,4087,4108,4165,4220,4289,4380,4405,4432,4536,4620,4836,4858,4971,5095,5153,521,5302,5344,5444,5455,5766,583,6270,6348,6380,6524,656,6888,689,6953,6965,6983,7,7044,7061,7070,7103,7196,7223,7240,7300,7662,7663,7859,8023,8143,8246,8303,8361,8386,8431,8446,8711,8733,8770,8964,9117,9148,9229,925,9259,9299,9423,9454,955,9744,9797
10074,1022,10257,10322,10325,10336,10616,10674,10680,10691,10703,10715,10839,1085,1091,10999,11174,11209,11209,11346,11455,11493,1157,1248,1352,1388,1389,1437,1443,1471,15,1531,1545,1582,1629,178,1797,1978,2110,2175,2212,2218,2313,2420,2535,2537,261,2712,2780,2831,3025,3129,325,3303,3321,3590,3647,3857,39,4081,4304,4341,4383,4520,462,4749,4846,4976,4998,500,5088,5225,5303,5397,5563,572,5731,5777,5888,5959,6053,6054,6055,623,6309,6432,6690,6851,6975,7069,709,7306,738,7405,7493,754,7561,77,7764,7944,7993,8247,8447,8594,8627,8682,8728,8758,8760,8771,8807,8899,9014,9031,9342,9396,9594,96,9668,9917,992
10101,10194,10345,10347,10703,10781,10839,10908,10916,11071,11189,11308,11458,11488,1155,11559,1162,1201,1290,1781,1836,2215,2238,226,2269,232,2596,2767,2841,287,2895,2958,302,3092,3125,3168,3221,336,3430,3430,3442,3479,3502,351,3664,3779,3797,3843,3878,3954,398,4095,4363,4364,4435,447,4515,4578,4684,4865,4910,5026,5115,5132,532,5369,5456,5485,5554,5573,5580,563,5734,5800,5850,6181,6211,6258,631,6435,6587,6593,6674,6688,6809,6819,6841,6933,7075,71,72,7234,729,7590,7593,7604,7640,7650,7772,7855,794,7948,800,8074,8159,8261,8273,8278,835,8460,87,8960,8986,9017,9125,9185,9370,9387,954,9562,9802
10110,10153,10314,10557,10594,10611,10696,10701,10965,11155,11296,1134,11430,11560,1248,1267,1353,1381,1433,1753,1755,1854,1952,1996,2020,2059,2209,2239,2271,2514,2585,265,2705,2764,2855,2867,2923,2942,3004,3033,3169,326,3312,334,3386,3451,3691,3696,382,391,3927,4048,4241,4276,438,4444,4595,4633,4767,4889,4938,5023,509,522,5281,5383,5416,5474,5495,5609,5666,5812,5988,6202,6251,6377,6423,6486,6511,6545,6599,6686,7043,7064,7073,7141,7504,7505,7706,778,7914,7946,8065,8137,8138,8185,822,8283,8319,8358,8411,8493,8530,8536,8592,8601,8659,8749,8825,897,9020,9038,9051,9063,9110,9141,9385,9546,9775,9788,9792
10020,1006,10146,10172,10220,10530,10555,10593,10650,1068,10702,10840,10843,11107,11130,11153,11240,11260,11495,1158,1187,1286,1323,14,1486,1503,1593,1651,1701,1708,1830,1835,186,2026,2370,2476,2694,2770,2933,2977,3044,312,3201,3206,3538,3654,3690,38,3913,3956,4049,4074,4280,4288,4370,4385,4390,4440,4522,4591,4827,4912,5117,5319,5343,5406,5445,5476,557,5574,560,561,5668,5729,5823,5827,6030,6085,6305,6371,6561,662,6739,6946,7245,7354,7418,7438,7489,7497,7610,7804,7868,7870,8011,8014,8224,8324,8324,8441,8476,8577,8699,8706,8778,8812,8881,90,9086,9179,9189,9259,9339,9402,9471,9477,9757,9777,979,99,9967
1000,1015,10253,10275,10283,10341,10384,10388,10513,10566,10712,10810,10871,10976,11051,11167,11216,11272,11299,11313,11366,11368,1138,1138,11401,11446,11573,11596,11638,1239,1352,1658,1756,1857,1884,2,2025,2097,2457,2523,254,2550,269,2744,3272,3311,3332,3591,3718,3772,4024,4066,4248,4389,4418,4443,4473,4537,460,474,4848,486,5174,5219,5274,5283,5338,5487,5522,5522,5744,5762,5832,5853,6182,6403,6416,6530,6555,6619,6711,6724,6750,6759,6858,6936,7035,7055,706,7061,7264,7420,7479,7666,7725,798,8069,8249,8311,8416,8610,862,873,8758,8992,9015,912,9165,9239,9244,9254,9313,9326,9354,9372,9400,9520,9664,9743,9848,9857
10037,10067,10071,10139,10573,10621,10624,10624,10641,1071,10927,1103,11342,11501,11554,11559,11574,122,1221,1281,1374,1506,1654,1724,1742,1756,181,1828,1929,1941,2577,2817,2919,318,3205,3257,3438,3557,3621,3882,3986,399,4008,402,406,4096,4222,4229,4315,4357,441,4478,4868,4896,4975,4984,5103,515,5269,5331,5409,5415,5703,5749,5799,5808,593,602,6148,6399,6561,6659,677,6787,6809,6910,6928,7025,7047,7099,7203,7256,730,7431,7432,7515,758,7592,7650,7744,804,810,8156,8273,8291,8317,833,8351,8357,836,8400,8406,8557,8650,8650,868,8726,891,9120,917,920,9208,9335,9346,9548,9581,9690,9693,9711,9798,9852
101,10110,10131,10154,10200,10549,10576,10859,10920,10924,11060,11214,113,11389,11398,11532,1156,121,1227,1328,1377,1415,1748,1835,1926,2048,211,2244,2322,2356,2366,237,2372,2422,2547,2567,2760,2780,2850,3014,3099,3132,3150,3313,3405,3418,3730,3795,3955,4033,4092,4370,4380,4435,4608,4908,5026,5179,5190,5454,5570,5802,5863,604,6078,608,6212,6299,6351,6387,6406,6444,6514,6592,6618,6713,6961,6962,7019,7528,7564,7642,7654,7705,7705,7758,7804,7981,8112,8174,8282,8412,8482,8520,8603,8650,8714,8732,8782,8842,8910,8913,8934,8943,8955,8971,9286,93,9315,9372,9402,9552,9574,9608,9618,9688,9729,9904,9926,9945,9999
100,10061,10113,10203,10304,10395,10506,10521,10749,1078,10796,10893,10913,11293,11409,11449,11499,11540,1183,1254,1293,1352,1461,1572,1772,1812,1931,2002,2048,2140,2336,2484,2606,2722,2754,2783,2940,303,3092,321,327,330,3394,351,3568,3569,3613,3653,3758,3843,3942,4047,4130,4221,4239,4264,4420,4488,4683,5084,5130,5186,5288,5431,5475,5595,5669,5707,5737,5757,5785,6166,6207,6223,635,6377,6469,6506,6511,6535,7151,7180,7240,7251,7397,7578,7592,7697,8007,8041,8071,8334,8443,8622,8648,8734,8801,8951,9054,9063,9102,9125,9152,920,9262,9346,9346,9364,9462,9525,9535,9583,9658,966,9728,9776,9794,9822,984,9885,9937
10010,10210,10266,10282,10333,10572,10879,10948,10970,11002,11068,11127,11252,11319,11418,1159,11606,1233,139,1405,1574,1575,1668,171,1778,1781,1813,1845,1879,19,1918,1950,2094,217,2231,2317,2424,2677,2742,275,2781,2860,2896,3141,3262,3415,3499,3508,3614,366,3694,3918,395,3972,4045,4129,4280,4377,4802,4843,50,5049,5083,5240,5356,5704,5766,579,579,5955,617,6175,6289,6354,6400,6454,6682,6770,6781,684,6864,6914,6922,6939,6980,7056,7140,7402,7442,7462,7495,756,7611,7628,771,7811,7931,8198,8385,839,8399,8470,8482,8501,8706,8712,8816,8888,8908,8984,9153,9205,9276,9335,951,9559,966,9671,9690,9720,9881
10352,10520,10545,10655,10835,10972,11059,11063,1112,11151,11328,11477,11494,11591,11603,11626,1381,1431,1456,1627,1668,1675,1782,1795,1800,2012,2080,2274,2354,2474,25,2817,2818,2884,2916,2983,2996,301,3088,3315,3341,3557,3669,3745,3759,3762,3841,3953,4035,4112,4374,4486,4802,5158,5191,5333,5408,5471,5630,5686,5696,5765,5809,5817,606,609,6264,6342,6505,6644,6724,6907,6988,7025,7110,7165,7170,7184,7250,7267,7330,7386,740,7417,7484,7518,7572,7671,7800,7834,7894,7898,791,7946,8214,8215,8257,8316,8329,835,8475,8520,8568,873,8743,8834,8900,9009,9079,9297,9434,9598,9626,9731,9740,9832,9861,9874,9878,9948,9967
10104,10278,10296,1033,10550,10806,10829,10863,10994,11036,11125,11125,11127,11134,11139,11201,11300,11380,11382,1153,1185,1256,1306,1416,1452,1569,1655,1656,1902,2025,2308,242,2450,2466,2600,2784,2923,3069,3360,3392,3404,3429,3436,3442,3447,3497,3692,3883,3953,3990,4025,4032,4078,4079,4248,4266,4267,4315,4357,4436,4462,4523,4598,4807,4833,4842,4842,4859,496,5141,5142,5300,5308,5405,5425,5487,5689,5746,5858,5927,5930,605,6055,6148,6300,6310,6321,6390,6440,6554,6772,6895,7018,7156,727,7281,7415,7445,7519,7580,7664,7690,7820,7822,7936,8130,8163,8236,8316,8455,8669,868,8819,8963,9053,9155,924,9350,9415,9452,9995
10153,10166,10236,10390,10477,10655,10759,10767,10790,1084,1085,10882,109,10903,10975,1101,1103,11056,11077,1119,11268,11279,1135,11404,11404,11446,11447,11541,11568,1206,1211,1236,1308,1447,1577,1587,1645,1771,2044,2050,2250,2271,2303,2547,2811,2933,3047,316,3260,3423,3665,3671,3803,390,3947,3969,4349,4407,4424,4574,4655,4700,4933,5079,5221,5291,5357,5364,5418,5534,5824,5918,5998,6013,6314,6330,6399,6402,648,657,6630,672,693,6945,701,7054,7139,725,7306,7393,7411,7470,748,7488,7531,7591,7755,8028,8092,829,8382,8394,8437,8503,8574,8627,8768,8847,8921,8944,9013,9144,918,9387,953,9538,9551,9797,9801,9825,9910
10073,10083,10088,10342,10355,10749,10838,10838,11013,11284,11420,11431,11489,11554,11592,12,126,1362,1399,1406,1622,1687,1757,1871,1874,2004,2074,2226,2258,2353,2420,2467,2868,2869,292,2946,2974,3068,3162,3253,3558,3649,3685,3694,3731,3810,3940,4010,4213,4303,4385,4471,4684,4804,4975,513,5150,5204,5207,5259,5308,534,5346,5468,5539,562,5741,5843,5941,5969,6035,6198,6348,6392,6400,6485,6510,653,6763,6772,6946,6947,6986,7021,7034,7041,7076,7081,7094,7167,7254,7310,7352,7356,7364,7437,7538,7770,7822,8008,8164,8321,8403,857,877,8817,8846,899,9045,9111,9159,9208,932,9347,9648,9722,9753,9805,9813,9842,9868
10029,10043,10088,10214,103,10301,10414,10635,10744,10984,10998,11169,11174,11179,11218,11390,11521,11530,11623,1203,149,162,1639,169,1920,1953,1972,200,2052,2383,240,2464,252,2579,2872,291,2919,2971,2980,3186,3317,3375,3389,3417,3478,3518,3725,3743,3955,3959,4010,4060,4102,4117,4257,4306,4328,4522,4543,4621,4769,4790,4797,4829,4856,4896,4979,5072,5282,5294,5437,5586,5610,5687,5687,5799,5840,5892,6033,6092,6167,6230,6239,6242,6244,6327,6335,6448,6723,6752,6807,6831,6971,6981,7116,7346,7379,7385,753,754,7554,7737,7772,7787,7859,8005,8208,8226,8544,856,8695,8710,8729,8954,8981,9151,9193,9414,9672,9943,9995
100,10022,10254,10313,10446,10457,10490,10529,10757,10932,10938,11020,11066,11080,11083,11305,11383,11436,11450,11483,11502,11574,1161,1196,1273,1302,1344,1810,1829,1896,1906,2014,205,2102,2120,2271,2296,2452,2533,2570,2647,2833,2870,3035,3213,3242,3267,3316,3386,3431,3457,3529,353,3546,3574,3864,4007,402,4149,4180,4193,4324,4348,435,4350,4367,4404,441,4661,4936,4945,5147,5167,5202,5327,5379,5478,5538,5639,5858,6062,6112,6378,639,643,657,6668,6699,6987,7039,7091,7161,7185,7234,7287,7507,7753,7778,81,8129,822,8266,827,8296,8336,8562,8869,9022,9029,9072,9150,9157,9214,9221,9224,9365,9390,9443,9662,9790,9802
10,1003,10045,10122,10337,10510,10540,1065,10660,10676,10751,10883,10923,10979,11008,11391,11549,11640,1167,1238,1521,1559,1727,174,1866,188,1883,2029,2052,2322,2323,238,2469,2566,2595,2646,2681,2721,2794,2808,2829,2845,2860,3009,3083,3195,3376,3754,3763,3839,3934,3982,4034,4087,4101,4162,4250,4767,4890,4913,4967,4987,501,5346,5452,556,5611,5673,6027,604,6131,6182,6260,630,6316,6335,6360,6383,6436,6595,6692,6699,6712,6985,7050,7052,7077,7116,7128,7146,7235,7419,7419,7502,7694,7762,7787,7810,7822,8210,8370,8532,8549,855,8641,8708,8785,8896,8908,894,8945,9283,9478,9489,952,9553,9639,9774,9786,984,9924
10024,10214,10366,10366,10616,10645,10670,10852,11043,11120,11218,11224,11292,11428,11431,11480,1151,11520,11560,1179,1275,1497,1507,1634,1660,1828,1833,1933,2007,2094,2331,237,2428,2517,2617,265,2858,2991,307,3163,319,3222,324,3586,3750,3762,3791,3815,4008,4078,4138,4147,4338,4719,4834,4954,4962,5048,5191,5282,5408,5431,5485,5545,5588,5727,5762,590,6007,6024,6026,6041,6064,6247,6385,6703,6885,6913,6970,7193,7216,7346,736,7424,7558,7611,7661,7675,7688,7705,7735,7869,7880,7915,7926,8146,8347,836,8361,8439,8496,8565,8588,8599,8669,8680,871,8719,8720,8959,9123,9158,9303,9369,9415,9448,9514,9542,9710,9714,9939
1,10003,10270,10282,103,10350,1037,10443,10549,10562,1066,10774,10808,10820,10989,11043,11124,11255,11292,11490,11569,11597,1245,126,1388,1719,1917,2253,2310,2433,2490,2502,2588,2608,2619,264,2663,2718,2888,291,2923,2989,3341,3611,3679,3798,392,3930,3954,4116,4178,4198,4204,4204,4221,4277,4441,4544,4820,5013,5076,5089,5093,5127,514,5364,5398,55,5615,5698,571,5718,5794,5885,5991,6094,614,6152,6188,6231,6319,6394,6418,646,651,6623,6664,6708,6724,6786,6949,7060,7083,710,7102,7275,7365,7556,7662,7855,8136,8141,8162,8180,8232,8316,8486,8842,8842,9075,9082,9119,9142,9185,9186,958,9680,9701,9839,9923,9980
10073,10212,10453,10539,10571,10587,10589,10637,10705,10716,10839,10858,110,11276,11317,11373,11420,11449,11487,11513,1215,1270,1352,1361,1453,1454,1672,1831,1965,2042,2121,2144,2195,2280,2295,2504,2564,260,2717,2756,2798,2809,2876,2962,2996,3218,3240,3400,3454,3568,3668,3732,3785,3789,3855,391,4205,4346,4383,4428,4445,4527,4534,4571,4751,4861,4993,5067,5106,5128,5174,5219,5258,5374,5641,5837,5975,5988,649,6553,6699,6732,6853,6959,7019,704,7137,7210,726,7297,737,7409,7415,7429,7566,7662,7706,7757,7812,7847,7849,7852,7901,7979,8173,8376,8647,8703,8832,889,9151,9245,9401,9418,9421,9429,9512,9686,9733,9870,9902
10064,10339,10396,10455,10460,10486,10497,10498,1064,10714,10971,11003,11234,11325,11528,11558,1230,1246,1405,1680,1859,1899,1978,2013,2036,2109,2145,222,231,2579,2784,296,3024,3126,3157,3294,3380,3381,3520,3617,365,3798,3855,3872,4089,4101,4135,4179,42,4230,4382,442,4442,4472,448,4523,4524,4530,4575,4598,4730,4738,4740,4804,4839,4864,5025,5174,5188,5217,5329,5418,542,5481,5528,5546,5580,5724,5767,578,5793,5829,5947,5960,6064,6226,6279,6296,6327,6341,6397,645,6621,6740,6783,6821,6941,7150,7387,7389,7532,7732,7916,7957,8032,8199,8303,8400,8504,8620,8892,8902,8921,9098,9120,9160,9176,9328,949,956,9666
10050,10052,10250,10281,10321,10394,1045,10623,10731,10751,10766,109,109,10973,11138,11265,11305,11330,1201,125,1284,1366,1826,1855,1875,198,2003,2082,2097,2145,2357,2373,2458,2492,2539,2573,2749,2753,2788,286,2956,3032,3056,3141,3297,3321,3691,3705,3749,3900,3926,3980,4071,4255,4300,4369,4401,4406,4593,4665,4676,4695,4736,4793,4800,5067,5360,554,5567,5595,5642,5744,5853,6070,6074,615,6383,6532,6662,6791,6809,6832,6987,7166,7215,7222,7301,7327,7355,7380,7437,7619,7634,7687,7697,7752,7975,7981,804,8118,8195,8234,8235,831,8316,8365,8407,8416,882,8917,8997,9078,9119,937,9385,9541,9553,9598,9747,9926,9968
10356,10436,10458,10572,10757,10854,109,10968,11064,11185,11243,11266,11295,1187,1200,1231,1515,1520,2031,215,2357,236,246,2522,2552,2594,2695,2815,2931,2943,2952,2984,3048,3113,3156,332,343,3445,3504,3537,354,3653,3781,3912,3941,4140,4194,4314,4400,4647,4687,4764,4890,4896,5045,5147,5173,5331,5475,5490,5525,5611,5772,5826,6035,6205,6218,6266,6377,6432,6535,6540,6593,6758,6773,6996,7041,7081,7181,7422,7448,748,7498,7523,7644,7694,7734,7882,7931,8029,8089,816,8202,8207,824,8255,831,836,8384,8407,8473,861,8644,8668,8764,8927,8935,8960,9018,9193,9214,9269,9271,9286,9392,9485,9585,9734,9837,9967,9982
10028,1009,10200,10252,10253,10295,10329,10335,10368,1040,10497,1066,10682,10729,10756,10768,10833,10852,10949,11088,1109,11132,11338,11521,11542,1162,11637,1203,13,1352,1425,1550,1600,1650,1798,1816,1847,1991,2088,2273,2487,2520,254,2570,2579,2654,3198,3258,3373,3442,3636,3654,3779,3795,3897,4104,419,4274,429,4518,452,4574,46,4658,4895,5028,5165,5256,5454,5518,5530,5661,5786,5799,5857,5909,5952,6305,667,6695,673,6772,6786,696,6979,7189,726,7363,7370,7435,7440,747,7541,757,7592,7647,7647,7762,7915,7991,8033,8117,8148,8186,8491,850,8516,8659,8741,8831,8833,9003,9135,9149,9452,9470,9485,9496,9499,9697,9946
10195,10224,10243,10295,10300,10375,10629,10671,10701,10722,1090,1104,11168,11200,11278,11302,11374,11554,11599,11621,1163,11633,1201,1265,1274,1376,1400,1493,153,1645,1684,1737,1770,1888,1949,205,2126,2155,2211,2370,2465,2484,2539,2550,2552,2641,2696,2746,2856,2861,2982,2997,3135,3304,3378,3381,341,3426,346,3467,3512,3695,3761,3835,395,4254,4269,4350,4437,4591,4630,4681,4744,4883,4887,5175,5188,5210,5256,5357,537,5427,5752,5955,5978,5987,6008,6145,6362,6533,6647,674,7012,7164,7371,7441,7473,7498,7848,7917,7970,803,8032,8076,8117,8149,8286,8432,8512,8691,8772,8810,9031,9103,9116,9339,9575,959,9793,9917,9964
10146,10414,10437,10503,10786,10823,10830,10900,11047,11212,11326,11483,1273,130,1302,1319,1336,1363,1384,1485,1511,1512,1733,1883,2073,2097,2355,2521,2541,2779,2950,2982,301,3063,3096,314,3165,3256,3275,3291,3485,3564,3588,3662,3692,3701,3837,4011,4012,4196,4206,4219,4256,4471,4596,4672,4755,4766,4866,4885,4898,4972,5033,5105,5116,5438,5467,5518,5813,5903,5968,6160,6269,6306,6428,6453,6512,6540,6705,6728,6763,6782,6906,6958,7027,7047,7151,7324,7765,7872,7969,8022,8055,8089,8131,8152,8161,8196,8259,8336,8358,8641,8648,8649,8761,8925,8953,9082,9201,9225,9228,9351,9454,9462,9519,9669,9809,986,9878,990,9964
0,10014,10016,10037,10067,10298,103,10394,10545,10603,10638,1064,10666,10702,10797,10863,10882,10909,10978,11006,11111,11172,11299,11463,11485,11487,11589,1218,1349,1507,1572,1599,1616,1724,1898,1955,2026,2178,221,2262,2272,2289,2319,2321,2382,2411,2414,2426,255,258,2643,3041,3087,313,3186,342,3445,3623,3660,3671,3694,3766,3908,4005,4016,4082,4133,4247,4249,4429,4504,4614,4703,504,5200,525,5431,5448,5455,5494,5501,5516,5624,5716,5804,6090,6093,6535,6602,6614,6642,6669,6778,6899,7240,7340,7489,7493,7812,7927,7957,8103,8222,8333,8381,8438,8485,8493,8574,8608,8731,876,8811,8863,9385,944,9704,9753,9843,9844,9867
10030,10088,10107,10120,10258,10285,10374,10390,10421,10566,10570,10654,10698,10750,10778,10916,11015,11325,11325,11452,11460,11540,11553,11555,119,122,149,1504,161,1628,1642,1736,1787,2058,2074,2130,2232,2340,237,2627,2639,2749,293,2996,3009,3049,3205,3261,3313,3400,3419,3450,3587,3647,3662,3715,3725,3762,3776,3908,3912,3993,407,4163,4163,4176,4332,4337,4352,4410,4540,4606,4636,4752,4801,4801,4831,494,4947,5133,5171,5181,5520,5557,564,5791,5973,6043,6362,6511,6532,66,6860,6972,7291,7354,7461,7462,7476,7876,7901,7906,7980,8159,82,836,8622,863,9006,9019,9109,9144,9197,9256,931,9465,9488,9539,9583,9598,9955
10165,10380,10420,10498,10517,10533,10537,107,10732,10898,10902,1099,11005,11055,11211,11271,11393,11405,11521,11529,11555,1229,1240,1249,1276,1296,13,1346,136,154,1550,1571,1579,1951,1961,202,2060,230,2344,2381,2475,2601,2704,274,2916,3111,3175,3281,3327,3523,3549,3648,3699,374,386,3882,3977,4057,4060,4283,447,4475,4557,4678,4730,4980,5062,5300,5338,5507,5590,5676,5717,5782,5857,59,6246,6337,6544,6567,6756,6808,6837,6927,7018,7067,7095,7182,7195,7254,7299,7334,7391,755,7824,7894,8188,828,8381,841,8461,8474,8500,8534,8625,869,8778,8867,9190,9248,9252,9364,9369,9369,94,9427,9471,9537,9575,9702,976
10002,10015,10096,10161,10511,10538,10557,10567,10596,10618,10695,10844,10990,11018,11359,1137,11525,11599,11602,12,1225,125,1297,1386,1495,162,1910,1944,1997,2047,2152,2265,2325,2354,2438,2630,2699,2781,2812,2894,3258,3290,3296,3357,3456,3499,3590,3697,3790,3914,392,3927,3998,4090,4215,4442,4546,4578,4589,4633,4961,505,5285,5288,5398,5411,5465,5593,5603,5693,5776,6256,6278,6365,6455,651,6531,6543,6621,6630,6697,6739,7064,7068,7124,7185,7258,7322,7345,750,7523,7943,7957,8011,8020,8052,8297,8385,8462,8491,8535,8689,8739,8813,8823,8883,8894,8969,909,9135,924,9283,9329,935,967,972,9740,9771,9856,9883,9960
10085,10133,1021,10298,10316,10317,10378,10383,10436,10439,10631,1076,10950,10960,11032,1130,11332,11397,11443,11459,11477,11510,11518,1314,1493,2019,2109,2111,2160,2197,2261,2301,2420,2702,2851,2898,2987,3035,3047,3117,3128,331,3378,3576,3602,3641,3653,3662,3843,3849,3906,4040,4069,4088,4287,4330,4516,4711,4724,4737,4894,5007,5104,5288,5339,5339,534,5351,5681,5809,582,5923,5957,598,6357,6505,654,6549,6556,6689,6781,6823,6940,6992,7117,7142,7162,7320,7511,7522,7569,7594,7600,7629,7636,7656,7782,7784,7806,8072,8206,844,8493,865,8790,882,8877,8921,893,9005,9023,9105,9225,9330,9530,9556,9574,9760,9885,9919,9961
10093,10115,10184,10211,10277,10288,1032,10340,10431,10583,10593,11117,11192,11230,11241,11269,11342,11438,11484,11528,1158,1308,1343,1352,1491,1521,1527,1624,1646,1851,1867,200,2039,2132,2194,232,2355,2463,2490,2493,2617,2700,3052,3070,3178,3233,3248,329,3297,3313,3325,3358,3376,3392,3525,3545,355,3575,3898,397,3980,4378,4382,4421,4464,4572,4712,4803,4834,4838,5115,5192,5302,534,5576,5642,5710,5723,5723,5878,5964,5991,608,6110,6121,6352,6367,6502,6690,6730,6842,6850,6944,6965,7006,7027,7193,7231,7401,7515,7569,7647,7680,8010,8042,810,816,8173,8302,8480,8841,9133,9159,9305,9427,9482,9536,9595,9875,9890,9998
10079,10156,10211,10262,10274,10341,10507,10571,10604,10639,10663,1092,10932,11027,11097,11155,11162,11165,11306,11391,11466,11506,11564,11592,1320,1397,1543,1617,165,176,180,1825,1959,2009,21,2112,2213,2232,2245,2248,2268,2461,2680,283,2924,2937,3006,326,3273,3422,3606,3687,3730,3857,4077,4220,4503,4506,4715,4759,4809,490,4987,5033,5067,51,5141,5297,5341,5944,5948,5955,5997,6015,6390,6393,6620,6742,6805,6920,6933,7055,7100,7177,7179,7181,7388,7407,7413,7413,7453,7478,7741,7888,7891,7894,7929,7956,797,8070,8071,8116,8195,8215,8232,8393,8552,8591,8693,8718,8763,8780,8842,8959,9000,9043,9125,9335,9425,9819,9927
10037,10208,10227,10288,1040,10414,1053,10719,10739,10766,10804,10807,11070,11195,11229,11237,11408,11614,1332,1346,1421,1691,1695,2030,2031,2058,2227,2296,2470,2536,2575,2696,2727,2757,2777,285,2888,290,2993,3122,3134,3161,3206,323,3247,3290,3391,3416,3478,3497,3587,3645,3646,3823,3867,3941,4131,4179,4307,4354,4394,4530,4544,4557,4636,4742,4772,4865,4993,5005,5183,5497,564,5646,58,5837,5904,5982,6338,6375,6418,6495,65,6551,6577,6663,6999,70,7089,7192,7201,7299,7406,7583,7692,8158,8346,8381,8401,8511,8593,869,8798,8807,8853,9065,9103,9139,9216,9268,9291,9417,9526,9559,956,9625,9686,969,9710,998,9984
10147,10372,10614,10659,10722,10727,10728,10784,1080,10865,1089,10965,1104,11383,11423,1262,1313,1348,1431,1520,1657,18,1814,1876,2001,2211,232,2492,2547,2658,2723,2940,2976,2999,3,3112,3124,3221,3248,3304,3319,3333,3378,3449,3513,3533,3674,3735,3889,4063,4129,4225,4283,4380,4407,4426,4581,4637,4643,4721,4866,4891,4895,5067,5113,5222,5510,5514,5770,5930,5990,6021,607,612,6121,6136,617,6205,6205,6478,6508,6563,6614,6637,6757,6902,7070,7171,7275,7277,7349,7366,7503,7526,7739,7809,7866,7939,80,8084,8135,8158,8311,8416,8500,8585,8720,896,8972,9039,9119,9178,9287,9348,9421,9582,960,9751,977,9888,9889
10136,10147,10503,10506,10672,10755,10878,10894,10930,11021,11135,11175,11188,11189,11190,11357,1176,1284,1325,1369,1371,1489,1574,1626,2376,2394,2408,2487,2722,2912,3094,3101,3154,3226,3237,3408,3644,374,376,3917,407,407,4172,4196,4238,4341,4488,4595,478,4790,4940,4966,4972,4975,5108,5295,5324,5385,5412,5432,5696,5717,574,5743,5876,593,606,6082,616,6205,6227,6274,633,6363,67,6793,7199,7310,7313,7367,7418,7457,748,758,7580,7618,7627,7635,7677,7759,7843,7921,7929,7964,7982,8242,836,8417,8499,8623,8767,8862,8961,9129,9129,9168,9187,9214,9409,9433,9499,9507,9572,960,9694,9756,9768,9903,9928,9936,9948
10009,10083,1015,10174,10419,10538,10603,10624,10799,10858,10883,10925,10995,11195,1132,1277,1296,1316,1345,1358,1386,1476,1538,1656,1675,1748,1902,1919,195,2046,2074,2169,2193,2399,2411,2495,2525,2602,2621,2677,2692,2713,275,2901,3005,3036,3037,3096,3194,3312,3613,3650,3874,3927,4136,4364,4398,4431,4765,4777,4809,4846,4875,4910,4983,5072,5075,5184,5199,5495,5536,5547,5663,5891,590,5987,6110,6162,6245,6369,6395,6462,6500,6540,6670,677,6853,6856,6887,6912,7033,7153,7284,7320,741,7456,7488,7511,7658,7684,7735,7880,8129,8202,835,8489,8516,8692,8913,9139,9221,9225,9352,9621,9725,9891,9965,9969,9980,9988,9997
10118,10127,10149,10250,10503,10512,10589,106,10667,1071,10771,10886,10957,11013,11514,11520,1176,1259,1326,1345,1393,1427,1549,1602,1624,1887,1901,1941,1957,1959,218,2408,2408,2443,2473,2529,2584,2690,2739,2828,2839,2887,3010,3120,3152,3186,3215,3242,3243,3286,3289,3474,3494,3527,3617,3704,3740,375,4052,4590,4601,4630,4714,4755,4865,4865,4885,5032,5040,5054,5100,5281,531,5393,5449,5681,5832,6088,6126,62,631,6514,6607,6730,68,6812,6974,7112,7232,7304,7324,7377,7449,7467,7518,7523,7682,7700,7783,7850,7897,8113,821,8321,8354,8636,8650,8798,8854,8892,8920,9044,9080,9134,9162,9168,9517,9532,9591,9645,9741
10053,10073,10128,10154,10169,10520,10592,10605,10713,10735,10891,11020,11166,11234,11452,11639,1286,1295,156,1693,1821,1895,1903,2124,2133,2218,2352,2373,2498,2529,2631,2823,2885,2956,3063,3149,3187,3242,3350,3514,3576,3671,3864,3880,4010,4047,4060,4097,4187,4224,4331,4408,4412,4455,4481,4521,4550,4830,4903,4966,498,5194,5337,5341,5510,5556,5559,558,5635,5691,5711,581,5835,5870,5878,5881,5949,602,6048,6408,6432,6436,6444,6447,6642,668,6733,6737,6770,7074,7155,7268,7302,744,747,7478,7624,7745,7796,7917,7986,8122,8384,843,8440,8455,8557,8606,8713,9017,9042,9291,9314,9364,9482,9564,965,9650,9688,9930,997
10086,10118,10190,10211,10221,10591,10675,11098,11102,11201,11280,11378,11409,1324,1326,139,148,1486,1571,1634,178,1814,1840,2101,2200,2201,2215,2364,2366,2453,2457,261,2659,2766,2790,2866,2928,3419,3461,3542,3615,3825,3944,3988,4081,4243,444,4562,4684,50,5197,5250,5373,5478,5623,5624,5657,5676,5754,577,5805,5918,5922,6012,6269,6345,6468,6555,6616,6672,6675,6684,6806,6829,6905,7047,7187,7189,7258,7281,7294,7368,7557,7672,7791,7851,7863,7885,8069,8077,8128,8148,8207,8350,8383,8462,8545,8696,8732,8740,8777,8918,9002,9084,9124,9271,9309,9431,9478,9481,9499,951,958,9587,9595,975,9760,9791,9818,987,9949
10215,10302,10378,10394,10425,10534,10613,10770,10775,1115,11161,11252,11447,1146,11505,11516,11542,1314,1447,151,154,1611,171,175,1756,2011,2074,219,2324,2326,2465,2499,2688,2691,281,2857,3081,3206,3342,3364,3513,3784,3831,4045,4072,4167,4215,429,4314,444,4497,4567,460,4641,4657,4726,4861,5007,5715,5775,5795,5880,5883,5959,6072,6088,6256,646,6569,6583,6664,6778,6789,6790,6796,6811,6881,6915,7190,7192,7198,7242,7527,7812,7865,7879,7937,7992,8009,8080,8125,8139,8141,8299,8300,8328,8384,8424,8449,8918,8989,9062,907,9221,9231,9303,9430,9443,9457,9488,9525,9575,9663,9734,9798,9801,9864,9904,9909,9975,9998
10088,10141,10161,10284,10319,10368,10401,10450,10474,10599,10793,10813,11012,11050,11076,11081,11151,11352,11413,11416,11477,11572,11579,1183,1216,1237,1324,1425,1531,1560,1635,175,1765,1870,1870,1909,1911,192,1975,2015,208,2092,2108,2124,2135,2149,2447,246,2498,25,2519,2639,2985,3079,3195,3246,3292,3388,3548,3678,3715,3918,3977,4178,4348,4469,4539,461,4824,4844,4918,5019,5114,5270,5333,5354,5389,5699,5741,5772,5792,5913,5983,5989,6087,6246,6329,6360,654,6581,6636,6644,6721,6972,7129,7231,7265,7281,7293,7548,7572,7588,7779,7935,795,8385,8389,8400,852,8543,8544,9186,9232,9392,9433,9501,9515,9526,9580,9772,9990
10151,10201,10343,104,10407,10486,10637,10704,10712,10798,10864,10911,11339,11340,11429,11456,11560,11614,11634,1211,1279,1447,1628,1707,1877,2076,226,2331,2497,2542,2661,2735,275,2888,2892,2899,2900,2913,2967,2974,3050,3293,332,3514,3624,3684,3713,3718,4035,4112,4130,4143,4147,4149,4173,4191,4196,4206,4263,4400,4425,4436,4564,4666,4739,4755,4876,4878,4935,5000,5009,5033,5145,5158,5254,5325,5370,5588,5653,5669,5735,5931,6005,6008,6202,6235,6238,6329,6366,6436,6537,6807,7005,736,7516,765,7711,7728,7780,7787,7884,7950,7970,8035,8213,8371,8486,8530,8655,8790,883,890,8930,8953,9360,9418,9487,9488,988,9951,9974
10389,10394,10583,10649,10680,108,1084,10845,10941,10969,11109,11243,11404,11461,11579,1195,1284,1380,1547,1571,1628,1755,18,1911,1921,1977,1986,2063,2153,2178,2308,2370,242,2571,258,2660,2718,2779,2810,3029,3088,3182,3345,3442,3592,3636,3993,4029,4030,4105,4139,4239,425,4327,436,4666,4714,4775,4955,4968,5063,5064,5095,51,514,5263,5308,5376,5747,575,5850,5941,6014,6114,6217,6222,6401,6542,6691,6723,6742,6857,689,6939,7052,7208,7227,7295,7321,7334,7334,7350,7560,7859,7956,7973,798,8,8055,8252,8276,8362,853,8550,8559,8582,8585,8606,8630,874,8785,8951,8960,9025,9124,9203,9256,9470,9516,9637,9882
1,10035,10090,10234,10415,10471,10502,10690,10694,10773,10868,1100,11027,11354,11485,11596,1215,1239,1401,1432,1507,1519,1734,1890,2093,2139,2277,2318,2323,2337,2668,277,2794,2919,3030,3110,3168,3215,3276,3276,3354,3355,3410,3585,3802,4079,4136,4145,4198,4213,4238,4306,4544,4577,4610,4626,4635,4704,473,4854,4878,5075,5227,5318,5475,5553,5765,578,581,5829,5855,5917,598,6058,6091,6092,6167,6229,6234,656,6588,6649,6656,6897,7113,7131,7144,7171,7203,7344,7402,7405,7595,7660,7781,7806,8043,8169,817,8191,8193,8258,8314,8370,8458,848,8483,8493,8620,9044,9233,9237,929,9335,9560,9612,9640,9769,9851,9868,9920
10082,10136,10204,10259,10303,10314,10367,1037,10490,10657,10658,1067,10785,10812,10823,10935,10951,11244,11303,11592,11600,1221,1318,1543,1624,1659,166,180,2031,2119,2214,2331,2497,2554,2673,2695,2745,289,2895,2943,30,3053,3136,3325,3539,3566,3598,369,3799,3808,3891,3933,4066,415,4237,429,4359,4405,4416,459,4641,4675,4763,4885,4918,5061,5238,5277,5366,5447,5707,5830,5957,6015,6058,6177,6194,6283,6434,6489,6553,664,6664,6879,6893,6920,693,7065,7103,7372,7528,7550,7637,7669,7683,7761,7841,7886,7929,8055,8081,8135,8183,8194,8201,8213,8284,8336,8442,8659,8744,8979,8985,9019,9351,9496,9579,9711,9808,9844,998
1000,10159,1017,10174,10207,10210,10275,10572,10579,10646,10743,10993,11082,11135,11231,1135,1154,11575,1227,1383,1542,1728,1732,1783,1850,1896,1939,2010,2058,2059,2445,2569,2576,2824,2873,308,3140,3187,3271,3286,3296,3315,3351,3399,3402,3422,345,3498,3508,3518,353,3566,3582,3846,3862,3943,4004,4031,4283,4315,4472,4516,4827,5076,510,5156,5236,5259,5365,5487,5502,5654,5751,5794,5885,6066,6214,6230,6309,6398,6465,6480,6567,6570,6693,6702,6807,686,6999,7012,7235,7301,7326,7367,7378,7520,7679,7704,7777,7779,778,8338,8353,8460,8525,8580,875,8770,8826,8968,8969,8990,9001,9119,9197,9220,9312,9340,9576,9576,9903
10070,10480,10529,10580,10747,10799,10875,10980,11016,1124,11253,11500,11520,11536,1235,1271,130,1395,1431,1464,148,1518,1690,1839,1896,1944,1955,1976,199,2009,2073,2321,2492,2537,2623,2648,2660,2748,3017,3019,3099,3180,3207,3346,3414,3435,3502,3609,3783,3885,4036,4140,4144,4249,426,4328,4331,4409,4563,4589,4666,4795,4912,4997,5054,5063,5306,5326,5334,5572,5785,5790,5938,6068,6113,6151,6223,6308,6335,6439,6488,6502,6604,661,6644,6774,6889,690,6917,6957,7135,7183,7278,7281,7311,734,7349,7469,7684,7888,8014,8188,8204,8212,8284,8451,846,8703,8811,9046,912,9165,9497,9501,9530,9676,9677,9689,9763,9796,985
10224,10488,10574,10599,10656,10757,10882,11185,11274,11344,11417,11536,11551,11564,11591,1244,1322,1432,16,1622,1678,1970,2015,2019,2028,2146,2345,2368,275,2792,3064,3137,3170,331,3459,3577,3577,3608,3757,3987,4085,4097,4099,4247,4333,448,4527,4624,469,4720,4819,482,4893,4946,5005,5049,5277,5288,5383,5434,5461,5639,5730,5757,5794,5809,5818,5914,6004,6098,6142,6152,6277,6557,6565,6784,6899,6944,6982,6994,7007,7161,7225,7270,7394,7406,7537,7640,7649,7703,7862,7961,7980,8011,8094,8152,8163,8220,8269,83,8425,8474,852,8540,8620,8644,8760,8809,8886,8931,8981,8990,9003,9011,9016,9289,9438,9569,9806,9813,9867
10056,10068,10108,1018,10414,10457,10757,10769,10844,10900,11094,11132,11268,11269,11299,11463,11468,11585,11615,11633,1178,1217,1268,1311,1510,1798,1902,1931,229,2376,2404,2485,2670,2684,2685,270,2731,2753,2972,3056,3188,3273,331,3318,3330,3472,3557,3662,3771,3886,3897,3911,4098,411,4223,4291,4292,4348,4352,4483,4699,4847,5057,5130,5258,5602,5655,5662,5757,6015,6035,6049,6318,6319,6380,642,6427,6479,6575,6634,6653,6819,6834,6921,7032,7061,7357,7388,7405,746,7485,75,7507,7622,7675,7873,7922,7983,804,808,8220,830,8401,8695,873,8763,881,8820,8861,8881,90,9020,9066,9123,9149,9186,9250,984,9848,992,9948
10041,10243,10365,10410,10540,10650,10750,10784,1087,10891,10927,10961,10975,11127,11174,11184,1124,11383,1154,1270,1296,1330,1391,1399,1462,1484,1521,1563,1744,1848,1911,1989,2102,2177,2287,2310,2480,2483,2645,268,2872,2889,2998,3177,3242,3522,3614,3693,3715,3770,3873,3933,3957,4044,4096,4197,4236,4323,4342,4375,4506,4675,4823,4843,4927,4936,4941,4979,5007,5026,5079,5273,5308,5317,5469,5512,5617,5647,5706,5802,5860,6045,6076,6128,6363,6401,6621,6867,6882,6917,7038,7226,770,7715,7745,7859,7883,7894,800,8023,8066,8144,8246,8453,846,8463,8490,8558,8603,8648,8775,9088,9265,9287,9557,9660,9711,9843,9858,9875,9923
